# Pulseq sequence file
# Created by PyPulseq

[VERSION]
major 1
minor 3
revision 1post1

[DEFINITIONS]
num_meas 30 
n_pulses 1 
tp 3 3 3 3 3 2.322 3 1.367 3 0.273 2.748 0.186 0.336 3 3 0.695 3 3 0.531 1.475 0.759 0.168 3 0.584 3 0.63 1.499 3 3 0.693 
td 1e-05 
Trec 3.96706867 3.96706867 3.96706867 3.96706867 3.96706867 3.96706867 3.96706867 3.96706867 3.96706867 3.96706867 3.96706867 3.96706867 3.96706867 3.96706867 3.96706867 3.96706867 3.96706867 3.96706867 3.96706867 3.96706867 3.96706867 3.96706867 3.96706867 3.96706867 3.96706867 3.96706867 3.96706867 3.96706867 3.96706867 3.96706867 
B1pa 5 5 3 3.75 2.5 3 5.5 3 3.75 3 3 3 3 4.5 3.75 3 3.5 0 3 3 3 3 5.5 3 3.25 3 3 0.25 4.5 3 
excFA 60 60 60 60 60 60 60 60 60 60 60 60 60 60 60 60 60 60 60 60 60 60 60 60 60 60 60 60 60 60 
SLFA 0 0 0 0 0 90 0 90 0 90 90 90 90 0 0 90 0 0 90 90 90 90 0 90 0 90 90 0 0 90 
SLflag 0 0 0 0 0 1 0 1 0 1 1 1 1 0 0 1 0 0 1 1 1 1 0 1 0 1 1 0 0 1 
DCsat 0.999996667 0.999996667 0.999996667 0.999996667 0.999996667 0.999995693 0.999996667 0.999992685 0.999996667 0.999963371 0.999996361 0.999946239 0.999970239 0.999996667 0.999996667 0.999985612 0.999996667 0.999996667 0.999981168 0.99999322 0.999986825 0.99994048 0.999996667 0.999982877 0.999996667 0.999984127 0.999993329 0.999996667 0.999996667 0.99998557 
offsets_ppm 3 3 3 3 3 0 3 0 3 0 0 0 0 3 3 0 3 3 0 0 0 0 3 0 3 0 0 3 3 0 
Trec_M0 nan 
M0_offset nan 
B0 4.7 
seq_id_string seq 

# Format of blocks:
#  #  D RF  GX  GY  GZ ADC EXT
[BLOCKS]
  1  0  1   0   0   0  0  0
  2  0  2   0   0   0  0  0
  3  1  0   0   0   0  0  0
  4  0  0   0   0   0  1  0
  5  2  0   0   0   0  0  0
  6  0  1   0   0   0  0  0
  7  0  2   0   0   0  0  0
  8  1  0   0   0   0  0  0
  9  0  0   0   0   0  1  0
 10  2  0   0   0   0  0  0
 11  0  3   0   0   0  0  0
 12  0  2   0   0   0  0  0
 13  1  0   0   0   0  0  0
 14  0  0   0   0   0  1  0
 15  2  0   0   0   0  0  0
 16  0  4   0   0   0  0  0
 17  0  2   0   0   0  0  0
 18  1  0   0   0   0  0  0
 19  0  0   0   0   0  1  0
 20  2  0   0   0   0  0  0
 21  0  5   0   0   0  0  0
 22  0  2   0   0   0  0  0
 23  1  0   0   0   0  0  0
 24  0  0   0   0   0  1  0
 25  2  0   0   0   0  0  0
 26  0  6   0   0   0  0  0
 27  0  7   0   0   0  0  0
 28  0  8   0   0   0  0  0
 29  0  9   0   0   0  0  0
 30  0 10   0   0   0  0  0
 31  0  7   0   0   0  0  0
 32  0 11   0   0   0  0  0
 33  0  2   0   0   0  0  0
 34  1  0   0   0   0  0  0
 35  0  0   0   0   0  1  0
 36  2  0   0   0   0  0  0
 37  0 12   0   0   0  0  0
 38  0  2   0   0   0  0  0
 39  1  0   0   0   0  0  0
 40  0  0   0   0   0  1  0
 41  2  0   0   0   0  0  0
 42  0  6   0   0   0  0  0
 43  0 13   0   0   0  0  0
 44  0  8   0   0   0  0  0
 45  0 14   0   0   0  0  0
 46  0 10   0   0   0  0  0
 47  0 13   0   0   0  0  0
 48  0 11   0   0   0  0  0
 49  0  2   0   0   0  0  0
 50  1  0   0   0   0  0  0
 51  0  0   0   0   0  1  0
 52  2  0   0   0   0  0  0
 53  0  4   0   0   0  0  0
 54  0  2   0   0   0  0  0
 55  1  0   0   0   0  0  0
 56  0  0   0   0   0  1  0
 57  2  0   0   0   0  0  0
 58  0  6   0   0   0  0  0
 59  0 15   0   0   0  0  0
 60  0  8   0   0   0  0  0
 61  0 16   0   0   0  0  0
 62  0 10   0   0   0  0  0
 63  0 15   0   0   0  0  0
 64  0 11   0   0   0  0  0
 65  0  2   0   0   0  0  0
 66  1  0   0   0   0  0  0
 67  0  0   0   0   0  1  0
 68  2  0   0   0   0  0  0
 69  0  6   0   0   0  0  0
 70  0 17   0   0   0  0  0
 71  0  8   0   0   0  0  0
 72  0 18   0   0   0  0  0
 73  0 10   0   0   0  0  0
 74  0 17   0   0   0  0  0
 75  0 11   0   0   0  0  0
 76  0  2   0   0   0  0  0
 77  1  0   0   0   0  0  0
 78  0  0   0   0   0  1  0
 79  2  0   0   0   0  0  0
 80  0  6   0   0   0  0  0
 81  0 19   0   0   0  0  0
 82  0  8   0   0   0  0  0
 83  0 20   0   0   0  0  0
 84  0 10   0   0   0  0  0
 85  0 19   0   0   0  0  0
 86  0 11   0   0   0  0  0
 87  0  2   0   0   0  0  0
 88  1  0   0   0   0  0  0
 89  0  0   0   0   0  1  0
 90  2  0   0   0   0  0  0
 91  0  6   0   0   0  0  0
 92  0 21   0   0   0  0  0
 93  0  8   0   0   0  0  0
 94  0 22   0   0   0  0  0
 95  0 10   0   0   0  0  0
 96  0 21   0   0   0  0  0
 97  0 11   0   0   0  0  0
 98  0  2   0   0   0  0  0
 99  1  0   0   0   0  0  0
100  0  0   0   0   0  1  0
101  2  0   0   0   0  0  0
102  0 23   0   0   0  0  0
103  0  2   0   0   0  0  0
104  1  0   0   0   0  0  0
105  0  0   0   0   0  1  0
106  2  0   0   0   0  0  0
107  0  4   0   0   0  0  0
108  0  2   0   0   0  0  0
109  1  0   0   0   0  0  0
110  0  0   0   0   0  1  0
111  2  0   0   0   0  0  0
112  0  6   0   0   0  0  0
113  0 24   0   0   0  0  0
114  0  8   0   0   0  0  0
115  0 25   0   0   0  0  0
116  0 10   0   0   0  0  0
117  0 24   0   0   0  0  0
118  0 11   0   0   0  0  0
119  0  2   0   0   0  0  0
120  1  0   0   0   0  0  0
121  0  0   0   0   0  1  0
122  2  0   0   0   0  0  0
123  0 26   0   0   0  0  0
124  0  2   0   0   0  0  0
125  1  0   0   0   0  0  0
126  0  0   0   0   0  1  0
127  2  0   0   0   0  0  0
128  3  0   0   0   0  0  0
129  0  2   0   0   0  0  0
130  1  0   0   0   0  0  0
131  0  0   0   0   0  1  0
132  2  0   0   0   0  0  0
133  0  6   0   0   0  0  0
134  0 27   0   0   0  0  0
135  0  8   0   0   0  0  0
136  0 28   0   0   0  0  0
137  0 10   0   0   0  0  0
138  0 27   0   0   0  0  0
139  0 11   0   0   0  0  0
140  0  2   0   0   0  0  0
141  1  0   0   0   0  0  0
142  0  0   0   0   0  1  0
143  2  0   0   0   0  0  0
144  0  6   0   0   0  0  0
145  0 29   0   0   0  0  0
146  0  8   0   0   0  0  0
147  0 30   0   0   0  0  0
148  0 10   0   0   0  0  0
149  0 29   0   0   0  0  0
150  0 11   0   0   0  0  0
151  0  2   0   0   0  0  0
152  1  0   0   0   0  0  0
153  0  0   0   0   0  1  0
154  2  0   0   0   0  0  0
155  0  6   0   0   0  0  0
156  0 31   0   0   0  0  0
157  0  8   0   0   0  0  0
158  0 32   0   0   0  0  0
159  0 10   0   0   0  0  0
160  0 31   0   0   0  0  0
161  0 11   0   0   0  0  0
162  0  2   0   0   0  0  0
163  1  0   0   0   0  0  0
164  0  0   0   0   0  1  0
165  2  0   0   0   0  0  0
166  0  6   0   0   0  0  0
167  0 33   0   0   0  0  0
168  0  8   0   0   0  0  0
169  0 34   0   0   0  0  0
170  0 10   0   0   0  0  0
171  0 33   0   0   0  0  0
172  0 11   0   0   0  0  0
173  0  2   0   0   0  0  0
174  1  0   0   0   0  0  0
175  0  0   0   0   0  1  0
176  2  0   0   0   0  0  0
177  0 12   0   0   0  0  0
178  0  2   0   0   0  0  0
179  1  0   0   0   0  0  0
180  0  0   0   0   0  1  0
181  2  0   0   0   0  0  0
182  0  6   0   0   0  0  0
183  0 35   0   0   0  0  0
184  0  8   0   0   0  0  0
185  0 36   0   0   0  0  0
186  0 10   0   0   0  0  0
187  0 35   0   0   0  0  0
188  0 11   0   0   0  0  0
189  0  2   0   0   0  0  0
190  1  0   0   0   0  0  0
191  0  0   0   0   0  1  0
192  2  0   0   0   0  0  0
193  0 37   0   0   0  0  0
194  0  2   0   0   0  0  0
195  1  0   0   0   0  0  0
196  0  0   0   0   0  1  0
197  2  0   0   0   0  0  0
198  0  6   0   0   0  0  0
199  0 38   0   0   0  0  0
200  0  8   0   0   0  0  0
201  0 39   0   0   0  0  0
202  0 10   0   0   0  0  0
203  0 38   0   0   0  0  0
204  0 11   0   0   0  0  0
205  0  2   0   0   0  0  0
206  1  0   0   0   0  0  0
207  0  0   0   0   0  1  0
208  2  0   0   0   0  0  0
209  0  6   0   0   0  0  0
210  0 40   0   0   0  0  0
211  0  8   0   0   0  0  0
212  0 41   0   0   0  0  0
213  0 10   0   0   0  0  0
214  0 40   0   0   0  0  0
215  0 11   0   0   0  0  0
216  0  2   0   0   0  0  0
217  1  0   0   0   0  0  0
218  0  0   0   0   0  1  0
219  2  0   0   0   0  0  0
220  0 42   0   0   0  0  0
221  0  2   0   0   0  0  0
222  1  0   0   0   0  0  0
223  0  0   0   0   0  1  0
224  2  0   0   0   0  0  0
225  0 23   0   0   0  0  0
226  0  2   0   0   0  0  0
227  1  0   0   0   0  0  0
228  0  0   0   0   0  1  0
229  2  0   0   0   0  0  0
230  0  6   0   0   0  0  0
231  0 43   0   0   0  0  0
232  0  8   0   0   0  0  0
233  0 44   0   0   0  0  0
234  0 10   0   0   0  0  0
235  0 43   0   0   0  0  0
236  0 11   0   0   0  0  0
237  0  2   0   0   0  0  0
238  1  0   0   0   0  0  0
239  0  0   0   0   0  1  0

# Format of RF events:
# id amplitude mag_id phase_id delay freq phase
# ..        Hz   ....     ....    us   Hz   rad
[RF]
1      212.882 1 2 0 600.327 0
2      79.3651 3 4 0 0 0
3      127.729 1 2 0 600.327 0
4      159.662 1 2 0 600.327 0
5      106.441 1 2 0 600.327 0
6         2500 5 6 0 0 1.5708
7      127.729 7 8 0 0 3.14159
8         2500 9 10 0 0 3.14159
9      127.729 11 12 0 0 0
10         2500 9 10 0 0 0
11         2500 5 6 0 0 4.71239
12       234.17 1 2 0 600.327 0
13      127.729 13 14 0 0 3.14159
14      127.729 15 16 0 0 0
15      127.729 17 18 0 0 3.14159
16      127.729 19 20 0 0 0
17      127.729 21 22 0 0 3.14159
18      127.729 23 24 0 0 0
19      127.729 25 26 0 0 3.14159
20      127.729 27 28 0 0 0
21      127.729 29 30 0 0 3.14159
22      127.729 31 32 0 0 0
23      191.594 1 2 0 600.327 0
24      127.729 33 34 0 0 3.14159
25      127.729 35 36 0 0 0
26      149.017 1 2 0 600.327 0
27      127.729 37 38 0 0 3.14159
28      127.729 39 40 0 0 0
29      127.729 41 42 0 0 3.14159
30      127.729 43 44 0 0 0
31      127.729 45 46 0 0 3.14159
32      127.729 47 48 0 0 0
33      127.729 49 50 0 0 3.14159
34      127.729 29 30 0 0 0
35      127.729 51 52 0 0 3.14159
36      127.729 53 54 0 0 0
37      138.373 1 2 0 600.327 0
38      127.729 55 56 0 0 3.14159
39      127.729 57 58 0 0 0
40      127.729 59 60 0 0 3.14159
41      127.729 61 62 0 0 0
42      10.6441 1 2 0 600.327 0
43      127.729 63 64 0 0 3.14159
44      127.729 65 66 0 0 0

# Format of ADC events:
# id num dwell delay freq phase
# ..  ..    ns    us   Hz   rad
[ADC]
1 1 1000000 0 0 0

# Format of delays:
# id delay (us)
[DELAYS]
1 20000
2 3947069
3 3000000

# Sequence Shapes
[SHAPES]

shape_id 1
num_samples 3000000
1
0
0
2999997

shape_id 2
num_samples 3000000
0
0
2999998

shape_id 3
num_samples 2100
1
0
0
2097

shape_id 4
num_samples 2100
0
0
2098

shape_id 5
num_samples 100
1
0
0
97

shape_id 6
num_samples 100
0
0
98

shape_id 7
num_samples 580500
1
0
0
580497

shape_id 8
num_samples 580500
0
0
580498

shape_id 9
num_samples 200
1
0
0
197

shape_id 10
num_samples 200
0
0
198

shape_id 11
num_samples 1161000
1
0
0
1160997

shape_id 12
num_samples 1161000
0
0
1160998

shape_id 13
num_samples 341750
1
0
0
341747

shape_id 14
num_samples 341750
0
0
341748

shape_id 15
num_samples 683500
1
0
0
683497

shape_id 16
num_samples 683500
0
0
683498

shape_id 17
num_samples 68250
1
0
0
68247

shape_id 18
num_samples 68250
0
0
68248

shape_id 19
num_samples 136500
1
0
0
136497

shape_id 20
num_samples 136500
0
0
136498

shape_id 21
num_samples 687000
1
0
0
686997

shape_id 22
num_samples 687000
0
0
686998

shape_id 23
num_samples 1374000
1
0
0
1373997

shape_id 24
num_samples 1374000
0
0
1373998

shape_id 25
num_samples 46500
1
0
0
46497

shape_id 26
num_samples 46500
0
0
46498

shape_id 27
num_samples 93000
1
0
0
92997

shape_id 28
num_samples 93000
0
0
92998

shape_id 29
num_samples 84000
1
0
0
83997

shape_id 30
num_samples 84000
0
0
83998

shape_id 31
num_samples 168000
1
0
0
167997

shape_id 32
num_samples 168000
0
0
167998

shape_id 33
num_samples 173750
1
0
0
173747

shape_id 34
num_samples 173750
0
0
173748

shape_id 35
num_samples 347500
1
0
0
347497

shape_id 36
num_samples 347500
0
0
347498

shape_id 37
num_samples 132750
1
0
0
132747

shape_id 38
num_samples 132750
0
0
132748

shape_id 39
num_samples 265500
1
0
0
265497

shape_id 40
num_samples 265500
0
0
265498

shape_id 41
num_samples 368750
1
0
0
368747

shape_id 42
num_samples 368750
0
0
368748

shape_id 43
num_samples 737500
1
0
0
737497

shape_id 44
num_samples 737500
0
0
737498

shape_id 45
num_samples 189750
1
0
0
189747

shape_id 46
num_samples 189750
0
0
189748

shape_id 47
num_samples 379500
1
0
0
379497

shape_id 48
num_samples 379500
0
0
379498

shape_id 49
num_samples 42000
1
0
0
41997

shape_id 50
num_samples 42000
0
0
41998

shape_id 51
num_samples 146000
1
0
0
145997

shape_id 52
num_samples 146000
0
0
145998

shape_id 53
num_samples 292000
1
0
0
291997

shape_id 54
num_samples 292000
0
0
291998

shape_id 55
num_samples 157500
1
0
0
157497

shape_id 56
num_samples 157500
0
0
157498

shape_id 57
num_samples 315000
1
0
0
314997

shape_id 58
num_samples 315000
0
0
314998

shape_id 59
num_samples 374750
1
0
0
374747

shape_id 60
num_samples 374750
0
0
374748

shape_id 61
num_samples 749500
1
0
0
749497

shape_id 62
num_samples 749500
0
0
749498

shape_id 63
num_samples 173250
1
0
0
173247

shape_id 64
num_samples 173250
0
0
173248

shape_id 65
num_samples 346500
1
0
0
346497

shape_id 66
num_samples 346500
0
0
346498

